# OSU HPX Bandwidth Test
# Size    Bandwidth (MB/s)
1         0.00242209
2         0.00506392
4         0.0105396
8         0.0211567
16        0.0423587
32        0.0844423
64        0.168638
128       0.3353
256       0.659059
512       1.47426
1024      3.12679
2048      5.8828
4096      10.9113
8192      20.1833
16384     40.5315
32768     62.8541
65536     80.2442
131072    94.1776
262144    103.042
524288    107.611
1048576   109.64
2097152   108.902
4194304   109.199
