# OSU HPX Bandwidth Test
# Size    Bandwidth (MB/s)
1         0.00266418
2         0.00535876
4         0.0107669
8         0.0216077
16        0.0430987
32        0.0858277
64        0.172564
128       0.342407
256       0.673242
512       1.33057
1024      2.5564
2048      4.95793
4096      9.11443
8192      17.2981
16384     31.3854
32768     53.6079
65536     71.5944
131072    87.6427
262144    100.047
524288    107.994
1048576   109.865
2097152   108.901
4194304   109.113
